ConState 0
	description first phase
	nextState 0
	transitionOn timeUp
	stateStance reverse
	time 0.500000


	trajectory root

		component
			rotationAxis -1.000000 0.000000 0.000000
			baseTrajectory
				0.000000 -0.003727
				0.010101 -0.015005
				0.020202 -0.015955
				0.030303 -0.017163
				0.040404 -0.018605
				0.050505 -0.020346
				0.060606 -0.022305
				0.070707 -0.024483
				0.080808 -0.026796
				0.090909 -0.029264
				0.101010 -0.031913
				0.111111 -0.034785
				0.121212 -0.037693
				0.131313 -0.040741
				0.141414 -0.043877
				0.151515 -0.046988
				0.161616 -0.050056
				0.171717 -0.053107
				0.181818 -0.056032
				0.191919 -0.058798
				0.202020 -0.061297
				0.212121 -0.063668
				0.222222 -0.065765
				0.232323 -0.067580
				0.242424 -0.069167
				0.252525 -0.070570
				0.262626 -0.071753
				0.272727 -0.072736
				0.282828 -0.073552
				0.292929 -0.074260
				0.303030 -0.074814
				0.313131 -0.075287
				0.323232 -0.075695
				0.333333 -0.076048
				0.343434 -0.076303
				0.353535 -0.076510
				0.363636 -0.076710
				0.373737 -0.076887
				0.383838 -0.077041
				0.393939 -0.077189
				0.404040 -0.077315
				0.414141 -0.077408
				0.424242 -0.077436
				0.434343 -0.077425
				0.444444 -0.077365
				0.454545 -0.077235
				0.464646 -0.077039
				0.474747 -0.076686
				0.484848 -0.076190
				0.494949 -0.075579
				0.505051 -0.074844
				0.515152 -0.073986
				0.525253 -0.073001
				0.535354 -0.071863
				0.545455 -0.070626
				0.555556 -0.069269
				0.565657 -0.067824
				0.575758 -0.066271
				0.585859 -0.064597
				0.595960 -0.062757
				0.606061 -0.060900
				0.616162 -0.059028
				0.626263 -0.057099
				0.636364 -0.055090
				0.646465 -0.052986
				0.656566 -0.050996
				0.666667 -0.049102
				0.676768 -0.047300
				0.686869 -0.045684
				0.696970 -0.044149
				0.707071 -0.042687
				0.717172 -0.041373
				0.727273 -0.040177
				0.737374 -0.039154
				0.747475 -0.038158
				0.757576 -0.037216
				0.767677 -0.036282
				0.777778 -0.035380
				0.787879 -0.034506
				0.797980 -0.033584
				0.808081 -0.032702
				0.818182 -0.031827
				0.828283 -0.030958
				0.838384 -0.030085
				0.848485 -0.029217
				0.858586 -0.028418
				0.868687 -0.027653
				0.878788 -0.026907
				0.888889 -0.026305
				0.898990 -0.025720
				0.909091 -0.025237
				0.919192 -0.024830
				0.929293 -0.024483
				0.939394 -0.024211
				0.949495 -0.024005
				0.959596 -0.023826
				0.969697 -0.023720
				0.979798 -0.023610
				0.989899 -0.023572
				1.000000 -0.023581
			/baseTrajectory
		/component

		component
			rotationAxis 0.000000 1.000000 0.000000
			baseTrajectory
				0.000000 -0.111211
				0.010101 -0.104213
				0.020202 -0.105539
				0.030303 -0.106686
				0.040404 -0.107633
				0.050505 -0.108352
				0.060606 -0.108917
				0.070707 -0.109319
				0.080808 -0.109574
				0.090909 -0.109700
				0.101010 -0.109703
				0.111111 -0.109616
				0.121212 -0.109453
				0.131313 -0.109232
				0.141414 -0.108983
				0.151515 -0.108716
				0.161616 -0.108454
				0.171717 -0.108206
				0.181818 -0.107977
				0.191919 -0.107780
				0.202020 -0.107619
				0.212121 -0.107494
				0.222222 -0.107403
				0.232323 -0.107341
				0.242424 -0.107301
				0.252525 -0.107279
				0.262626 -0.107275
				0.272727 -0.107288
				0.282828 -0.107316
				0.292929 -0.107359
				0.303030 -0.107417
				0.313131 -0.107497
				0.323232 -0.107604
				0.333333 -0.107739
				0.343434 -0.107897
				0.353535 -0.108082
				0.363636 -0.108279
				0.373737 -0.108484
				0.383838 -0.108691
				0.393939 -0.108888
				0.404040 -0.109047
				0.414141 -0.109146
				0.424242 -0.109161
				0.434343 -0.109082
				0.444444 -0.108883
				0.454545 -0.108554
				0.464646 -0.108063
				0.474747 -0.107387
				0.484848 -0.106510
				0.494949 -0.105444
				0.505051 -0.104188
				0.515152 -0.102721
				0.525253 -0.101024
				0.535354 -0.099095
				0.545455 -0.096949
				0.555556 -0.094608
				0.565657 -0.092067
				0.575758 -0.089326
				0.585859 -0.086375
				0.595960 -0.083217
				0.606061 -0.079909
				0.616162 -0.076482
				0.626263 -0.072905
				0.636364 -0.069197
				0.646465 -0.065319
				0.656566 -0.061320
				0.666667 -0.057211
				0.676768 -0.053030
				0.686869 -0.048768
				0.696970 -0.044404
				0.707071 -0.039959
				0.717172 -0.035469
				0.727273 -0.030888
				0.737374 -0.026312
				0.747475 -0.021709
				0.757576 -0.017095
				0.767677 -0.012430
				0.777778 -0.007771
				0.787879 -0.003160
				0.797980 0.001494
				0.808081 0.006092
				0.818182 0.010594
				0.828283 0.015050
				0.838384 0.019401
				0.848485 0.023645
				0.858586 0.027723
				0.868687 0.031642
				0.878788 0.035459
				0.888889 0.039049
				0.898990 0.042539
				0.909091 0.045893
				0.919192 0.049086
				0.929293 0.052166
				0.939394 0.055111
				0.949495 0.057963
				0.959596 0.060747
				0.969697 0.063422
				0.979798 0.066031
				0.989899 0.068464
				1.000000 0.070753
			/baseTrajectory
		/component

		component
			rotationAxis 0.000000 0.000000 1.000000
			baseTrajectory
				0.000000 -0.072077
				0.010101 -0.074997
				0.020202 -0.071298
				0.030303 -0.067480
				0.040404 -0.063599
				0.050505 -0.059624
				0.060606 -0.055543
				0.070707 -0.051307
				0.080808 -0.046918
				0.090909 -0.042353
				0.101010 -0.037588
				0.111111 -0.032639
				0.121212 -0.027470
				0.131313 -0.022040
				0.141414 -0.016401
				0.151515 -0.010485
				0.161616 -0.004332
				0.171717 0.002029
				0.181818 0.008611
				0.191919 0.015336
				0.202020 0.022169
				0.212121 0.029069
				0.222222 0.035962
				0.232323 0.042798
				0.242424 0.049494
				0.252525 0.056000
				0.262626 0.062214
				0.272727 0.068057
				0.282828 0.073525
				0.292929 0.078570
				0.303030 0.083156
				0.313131 0.087272
				0.323232 0.090933
				0.333333 0.094110
				0.343434 0.096800
				0.353535 0.099066
				0.363636 0.100979
				0.373737 0.102518
				0.383838 0.103710
				0.393939 0.104566
				0.404040 0.105118
				0.414141 0.105343
				0.424242 0.105312
				0.434343 0.105073
				0.444444 0.104650
				0.454545 0.103984
				0.464646 0.103147
				0.474747 0.102157
				0.484848 0.101078
				0.494949 0.099924
				0.505051 0.098745
				0.515152 0.097530
				0.525253 0.096306
				0.535354 0.095080
				0.545455 0.093941
				0.555556 0.092872
				0.565657 0.091897
				0.575758 0.091005
				0.585859 0.090241
				0.595960 0.089607
				0.606061 0.089168
				0.616162 0.088919
				0.626263 0.088869
				0.636364 0.089002
				0.646465 0.089339
				0.656566 0.089927
				0.666667 0.090771
				0.676768 0.091846
				0.686869 0.093177
				0.696970 0.094720
				0.707071 0.096469
				0.717172 0.098432
				0.727273 0.100583
				0.737374 0.102922
				0.747475 0.105394
				0.757576 0.107985
				0.767677 0.110668
				0.777778 0.113419
				0.787879 0.116220
				0.797980 0.119014
				0.808081 0.121781
				0.818182 0.124484
				0.828283 0.127070
				0.838384 0.129514
				0.848485 0.131767
				0.858586 0.133808
				0.868687 0.135590
				0.878788 0.137074
				0.888889 0.138283
				0.898990 0.139140
				0.909091 0.139667
				0.919192 0.139863
				0.929293 0.139654
				0.939394 0.139081
				0.949495 0.138107
				0.959596 0.136742
				0.969697 0.134977
				0.979798 0.132806
				0.989899 0.130295
				1.000000 0.127429
			/baseTrajectory
		/component
	/trajectory

	trajectory SWING_hip

		component
			rotationAxis -1.000000 0.000000 0.000000
			baseTrajectory
				0.000000 -0.299940
				0.010101 -0.273564
				0.020202 -0.275153
				0.030303 -0.275753
				0.040404 -0.275325
				0.050505 -0.273721
				0.060606 -0.270985
				0.070707 -0.267037
				0.080808 -0.261920
				0.090909 -0.255551
				0.101010 -0.247878
				0.111111 -0.238842
				0.121212 -0.228591
				0.131313 -0.217013
				0.141414 -0.204173
				0.151515 -0.190194
				0.161616 -0.175137
				0.171717 -0.159024
				0.181818 -0.142038
				0.191919 -0.124284
				0.202020 -0.105966
				0.212121 -0.087017
				0.222222 -0.067694
				0.232323 -0.048109
				0.242424 -0.028297
				0.252525 -0.008290
				0.262626 0.011776
				0.272727 0.031835
				0.282828 0.051858
				0.292929 0.071841
				0.303030 0.091666
				0.313131 0.111362
				0.323232 0.130915
				0.333333 0.150275
				0.343434 0.169336
				0.353535 0.188135
				0.363636 0.206702
				0.373737 0.224975
				0.383838 0.242926
				0.393939 0.260533
				0.404040 0.277759
				0.414141 0.294542
				0.424242 0.310838
				0.434343 0.326666
				0.444444 0.341994
				0.454545 0.356745
				0.464646 0.370922
				0.474747 0.384402
				0.484848 0.397205
				0.494949 0.409348
				0.505051 0.420812
				0.515152 0.431590
				0.525253 0.441675
				0.535354 0.451022
				0.545455 0.459735
				0.555556 0.467776
				0.565657 0.475187
				0.575758 0.481934
				0.585859 0.488026
				0.595960 0.493416
				0.606061 0.498302
				0.616162 0.502692
				0.626263 0.506550
				0.636364 0.509841
				0.646465 0.512558
				0.656566 0.514974
				0.666667 0.517082
				0.676768 0.518892
				0.686869 0.520536
				0.696970 0.521881
				0.707071 0.522950
				0.717172 0.523862
				0.727273 0.524595
				0.737374 0.525272
				0.747475 0.525735
				0.757576 0.526064
				0.767677 0.526231
				0.777778 0.526326
				0.787879 0.526402
				0.797980 0.526389
				0.808081 0.526425
				0.818182 0.526540
				0.828283 0.526742
				0.838384 0.527057
				0.848485 0.527504
				0.858586 0.528173
				0.868687 0.529002
				0.878788 0.529959
				0.888889 0.531186
				0.898990 0.532518
				0.909091 0.534005
				0.919192 0.535604
				0.929293 0.537224
				0.939394 0.538867
				0.949495 0.540474
				0.959596 0.542005
				0.969697 0.543492
				0.979798 0.544858
				0.989899 0.546187
				1.000000 0.547449
			/baseTrajectory
		/component

		component
			rotationAxis 0.000000 1.000000 0.000000
			baseTrajectory
				0.000000 -0.104708
				0.010101 -0.115922
				0.020202 -0.115606
				0.030303 -0.114922
				0.040404 -0.113858
				0.050505 -0.112483
				0.060606 -0.110609
				0.070707 -0.108320
				0.080808 -0.105624
				0.090909 -0.102517
				0.101010 -0.098961
				0.111111 -0.094869
				0.121212 -0.090472
				0.131313 -0.085718
				0.141414 -0.080561
				0.151515 -0.075208
				0.161616 -0.069643
				0.171717 -0.063847
				0.181818 -0.057946
				0.191919 -0.051944
				0.202020 -0.045931
				0.212121 -0.039849
				0.222222 -0.033802
				0.232323 -0.027824
				0.242424 -0.021914
				0.252525 -0.016114
				0.262626 -0.010484
				0.272727 -0.005026
				0.282828 0.000192
				0.292929 0.005152
				0.303030 0.009805
				0.313131 0.014143
				0.323232 0.018126
				0.333333 0.021760
				0.343434 0.025007
				0.353535 0.027867
				0.363636 0.030319
				0.373737 0.032382
				0.383838 0.034061
				0.393939 0.035357
				0.404040 0.036268
				0.414141 0.036786
				0.424242 0.036911
				0.434343 0.036671
				0.444444 0.036080
				0.454545 0.035167
				0.464646 0.033919
				0.474747 0.032330
				0.484848 0.030432
				0.494949 0.028277
				0.505051 0.025920
				0.515152 0.023348
				0.525253 0.020573
				0.535354 0.017612
				0.545455 0.014516
				0.555556 0.011329
				0.565657 0.008063
				0.575758 0.004715
				0.585859 0.001273
				0.595960 -0.002280
				0.606061 -0.005837
				0.616162 -0.009401
				0.626263 -0.013030
				0.636364 -0.016746
				0.646465 -0.020614
				0.656566 -0.024565
				0.666667 -0.028650
				0.676768 -0.032892
				0.686869 -0.037351
				0.696970 -0.042119
				0.707071 -0.047237
				0.717172 -0.052789
				0.727273 -0.058891
				0.737374 -0.065561
				0.747475 -0.072922
				0.757576 -0.081055
				0.767677 -0.090076
				0.777778 -0.099962
				0.787879 -0.110672
				0.797980 -0.122396
				0.808081 -0.134787
				0.818182 -0.147844
				0.828283 -0.161461
				0.838384 -0.175440
				0.848485 -0.189561
				0.858586 -0.203479
				0.868687 -0.216926
				0.878788 -0.229836
				0.888889 -0.241633
				0.898990 -0.252538
				0.909091 -0.262106
				0.919192 -0.270162
				0.929293 -0.276592
				0.939394 -0.281215
				0.949495 -0.284052
				0.959596 -0.285237
				0.969697 -0.284655
				0.979798 -0.282553
				0.989899 -0.278624
				1.000000 -0.273102
			/baseTrajectory
		/component

		component
			rotationAxis 0.000000 0.000000 1.000000
			baseTrajectory
				0.000000 0.064340
				0.010101 0.077890
				0.020202 0.071154
				0.030303 0.064471
				0.040404 0.057913
				0.050505 0.051471
				0.060606 0.045133
				0.070707 0.038848
				0.080808 0.032607
				0.090909 0.026402
				0.101010 0.020226
				0.111111 0.014117
				0.121212 0.007967
				0.131313 0.001775
				0.141414 -0.004412
				0.151515 -0.010719
				0.161616 -0.017101
				0.171717 -0.023517
				0.181818 -0.030021
				0.191919 -0.036534
				0.202020 -0.043051
				0.212121 -0.049492
				0.222222 -0.055822
				0.232323 -0.061993
				0.242424 -0.067909
				0.252525 -0.073515
				0.262626 -0.078725
				0.272727 -0.083451
				0.282828 -0.087712
				0.292929 -0.091455
				0.303030 -0.094674
				0.313131 -0.097357
				0.323232 -0.099552
				0.333333 -0.101224
				0.343434 -0.102394
				0.353535 -0.103133
				0.363636 -0.103551
				0.373737 -0.103614
				0.383838 -0.103355
				0.393939 -0.102781
				0.404040 -0.101937
				0.414141 -0.100788
				0.424242 -0.099440
				0.434343 -0.097941
				0.444444 -0.096314
				0.454545 -0.094460
				0.464646 -0.092485
				0.474747 -0.090440
				0.484848 -0.088395
				0.494949 -0.086343
				0.505051 -0.084337
				0.515152 -0.082362
				0.525253 -0.080461
				0.535354 -0.078649
				0.545455 -0.077023
				0.555556 -0.075547
				0.565657 -0.074243
				0.575758 -0.073107
				0.585859 -0.072217
				0.595960 -0.071589
				0.606061 -0.071239
				0.616162 -0.071163
				0.626263 -0.071404
				0.636364 -0.071949
				0.646465 -0.072854
				0.656566 -0.074112
				0.666667 -0.075737
				0.676768 -0.077685
				0.686869 -0.079988
				0.696970 -0.082629
				0.707071 -0.085586
				0.717172 -0.088854
				0.727273 -0.092425
				0.737374 -0.096251
				0.747475 -0.100309
				0.757576 -0.104564
				0.767677 -0.109004
				0.777778 -0.113558
				0.787879 -0.118172
				0.797980 -0.122846
				0.808081 -0.127438
				0.818182 -0.131904
				0.828283 -0.136186
				0.838384 -0.140232
				0.848485 -0.143974
				0.858586 -0.147342
				0.868687 -0.150293
				0.878788 -0.152846
				0.888889 -0.154921
				0.898990 -0.156587
				0.909091 -0.157820
				0.919192 -0.158633
				0.929293 -0.158960
				0.939394 -0.158841
				0.949495 -0.158259
				0.959596 -0.157262
				0.969697 -0.155786
				0.979798 -0.153873
				0.989899 -0.151467
				1.000000 -0.148562
			/baseTrajectory
		/component
	/trajectory

	trajectory STANCE_hip

		component
			rotationAxis -1.000000 0.000000 0.000000
			baseTrajectory
				0.000000 0.486142
				0.010101 0.493313
				0.020202 0.494499
				0.030303 0.496052
				0.040404 0.497957
				0.050505 0.500270
				0.060606 0.502881
				0.070707 0.505730
				0.080808 0.508752
				0.090909 0.511915
				0.101010 0.515216
				0.111111 0.518658
				0.121212 0.522000
				0.131313 0.525307
				0.141414 0.528494
				0.151515 0.531415
				0.161616 0.534010
				0.171717 0.536259
				0.181818 0.538009
				0.191919 0.539200
				0.202020 0.539682
				0.212121 0.539553
				0.222222 0.538632
				0.232323 0.536886
				0.242424 0.534327
				0.252525 0.530992
				0.262626 0.526820
				0.272727 0.521809
				0.282828 0.515994
				0.292929 0.509442
				0.303030 0.502119
				0.313131 0.494108
				0.323232 0.485453
				0.333333 0.476184
				0.343434 0.466278
				0.353535 0.455825
				0.363636 0.444924
				0.373737 0.433584
				0.383838 0.421846
				0.393939 0.409754
				0.404040 0.397344
				0.414141 0.384641
				0.424242 0.371643
				0.434343 0.358412
				0.444444 0.344975
				0.454545 0.331319
				0.464646 0.317517
				0.474747 0.303460
				0.484848 0.289226
				0.494949 0.274834
				0.505051 0.260254
				0.515152 0.245547
				0.525253 0.230764
				0.535354 0.215848
				0.545455 0.200933
				0.555556 0.185905
				0.565657 0.170888
				0.575758 0.155805
				0.585859 0.140745
				0.595960 0.125675
				0.606061 0.110766
				0.616162 0.095976
				0.626263 0.081297
				0.636364 0.066652
				0.646465 0.052119
				0.656566 0.037892
				0.666667 0.023980
				0.676768 0.010307
				0.686869 -0.002987
				0.696970 -0.016064
				0.707071 -0.028923
				0.717172 -0.041450
				0.727273 -0.053690
				0.737374 -0.065608
				0.747475 -0.077356
				0.757576 -0.088918
				0.767677 -0.100346
				0.777778 -0.111630
				0.787879 -0.122762
				0.797980 -0.133829
				0.808081 -0.144745
				0.818182 -0.155526
				0.828283 -0.166163
				0.838384 -0.176666
				0.848485 -0.186997
				0.858586 -0.197053
				0.868687 -0.206843
				0.878788 -0.216362
				0.888889 -0.225430
				0.898990 -0.234176
				0.909091 -0.242473
				0.919192 -0.250321
				0.929293 -0.257679
				0.939394 -0.264511
				0.949495 -0.270769
				0.959596 -0.276499
				0.969697 -0.281586
				0.979798 -0.286097
				0.989899 -0.289889
				1.000000 -0.292948
			/baseTrajectory
		/component

		component
			rotationAxis 0.000000 -1.000000 0.000000
			baseTrajectory
				0.000000 -0.251005
				0.010101 -0.242579
				0.020202 -0.235976
				0.030303 -0.229122
				0.040404 -0.222090
				0.050505 -0.214982
				0.060606 -0.207992
				0.070707 -0.201054
				0.080808 -0.194398
				0.090909 -0.187976
				0.101010 -0.181787
				0.111111 -0.175764
				0.121212 -0.170008
				0.131313 -0.164486
				0.141414 -0.159185
				0.151515 -0.154260
				0.161616 -0.149719
				0.171717 -0.145482
				0.181818 -0.141680
				0.191919 -0.138329
				0.202020 -0.135522
				0.212121 -0.133152
				0.222222 -0.131277
				0.232323 -0.129896
				0.242424 -0.128896
				0.252525 -0.128260
				0.262626 -0.127934
				0.272727 -0.127795
				0.282828 -0.127833
				0.292929 -0.127969
				0.303030 -0.128162
				0.313131 -0.128344
				0.323232 -0.128481
				0.333333 -0.128505
				0.343434 -0.128386
				0.353535 -0.128125
				0.363636 -0.127741
				0.373737 -0.127191
				0.383838 -0.126468
				0.393939 -0.125573
				0.404040 -0.124511
				0.414141 -0.123318
				0.424242 -0.121981
				0.434343 -0.120536
				0.444444 -0.119002
				0.454545 -0.117352
				0.464646 -0.115683
				0.474747 -0.113970
				0.484848 -0.112278
				0.494949 -0.110595
				0.505051 -0.108838
				0.515152 -0.107128
				0.525253 -0.105505
				0.535354 -0.103909
				0.545455 -0.102450
				0.555556 -0.100967
				0.565657 -0.099590
				0.575758 -0.098223
				0.585859 -0.096994
				0.595960 -0.095960
				0.606061 -0.095101
				0.616162 -0.094353
				0.626263 -0.093726
				0.636364 -0.093134
				0.646465 -0.092659
				0.656566 -0.092184
				0.666667 -0.091746
				0.676768 -0.091246
				0.686869 -0.090651
				0.696970 -0.089847
				0.707071 -0.088859
				0.717172 -0.087717
				0.727273 -0.086321
				0.737374 -0.084721
				0.747475 -0.082897
				0.757576 -0.080809
				0.767677 -0.078362
				0.777778 -0.075581
				0.787879 -0.072560
				0.797980 -0.069129
				0.808081 -0.065374
				0.818182 -0.061374
				0.828283 -0.057074
				0.838384 -0.052559
				0.848485 -0.047873
				0.858586 -0.043153
				0.868687 -0.038414
				0.878788 -0.033575
				0.888889 -0.028883
				0.898990 -0.024223
				0.909091 -0.019663
				0.919192 -0.015241
				0.929293 -0.010984
				0.939394 -0.006923
				0.949495 -0.003019
				0.959596 0.000741
				0.969697 0.004275
				0.979798 0.007707
				0.989899 0.010927
				1.000000 0.013989
			/baseTrajectory
		/component

		component
			rotationAxis 0.000000 0.000000 -1.000000
			baseTrajectory
				0.000000 -0.108024
				0.010101 -0.102415
				0.020202 -0.098091
				0.030303 -0.093629
				0.040404 -0.089063
				0.050505 -0.084341
				0.060606 -0.079484
				0.070707 -0.074405
				0.080808 -0.069136
				0.090909 -0.063638
				0.101010 -0.057882
				0.111111 -0.051884
				0.121212 -0.045602
				0.131313 -0.039000
				0.141414 -0.032138
				0.151515 -0.024958
				0.161616 -0.017509
				0.171717 -0.009812
				0.181818 -0.001869
				0.191919 0.006234
				0.202020 0.014450
				0.212121 0.022739
				0.222222 0.031026
				0.232323 0.039260
				0.242424 0.047368
				0.252525 0.055289
				0.262626 0.062933
				0.272727 0.070233
				0.282828 0.077180
				0.292929 0.083729
				0.303030 0.089855
				0.313131 0.095544
				0.323232 0.100815
				0.333333 0.105642
