Con_OpenSim_State 0
description second phase
nextState 1
stateStance 3
transitionOn timeUp
time 0.5

trajectory root
component
rotationAxis -1 0 0
baseTrajectory
	0.000000 -0.023581
	0.010309 -0.023628
	0.020619 -0.023777
	0.030928 -0.023984
	0.041237 -0.024215
	0.051546 -0.024570
	0.061856 -0.024953
	0.072165 -0.025396
	0.082474 -0.025872
	0.092784 -0.026348
	0.103093 -0.026922
	0.113402 -0.027497
	0.123711 -0.028132
	0.134021 -0.028856
	0.144330 -0.029565
	0.154639 -0.030370
	0.164948 -0.031322
	0.175258 -0.032410
	0.185567 -0.033686
	0.195876 -0.035045
	0.206186 -0.036591
	0.216495 -0.038323
	0.226804 -0.040214
	0.237113 -0.042307
	0.247423 -0.044512
	0.257732 -0.046823
	0.268041 -0.049184
	0.278351 -0.051569
	0.288660 -0.053975
	0.298969 -0.056325
	0.309278 -0.058579
	0.319588 -0.060805
	0.329897 -0.062962
	0.340206 -0.065140
	0.350515 -0.067214
	0.360825 -0.069234
	0.371134 -0.071194
	0.381443 -0.073103
	0.391753 -0.075003
	0.402062 -0.076885
	0.412371 -0.078655
	0.422680 -0.080343
	0.432990 -0.081890
	0.443299 -0.083370
	0.453608 -0.084778
	0.463918 -0.086105
	0.474227 -0.087347
	0.484536 -0.088423
	0.494845 -0.089355
	0.505155 -0.090181
	0.515464 -0.090855
	0.525773 -0.091382
	0.536082 -0.091750
	0.546392 -0.091957
	0.556701 -0.091885
	0.567010 -0.091573
	0.577320 -0.091070
	0.587629 -0.090365
	0.597938 -0.089364
	0.608247 -0.088165
	0.618557 -0.086714
	0.628866 -0.084965
	0.639175 -0.082913
	0.649485 -0.080840
	0.659794 -0.078654
	0.670103 -0.076324
	0.680412 -0.073847
	0.690722 -0.071333
	0.701031 -0.068719
	0.711340 -0.066032
	0.721649 -0.063417
	0.731959 -0.060789
	0.742268 -0.057950
	0.752577 -0.055032
	0.762887 -0.052151
	0.773196 -0.049278
	0.783505 -0.046414
	0.793814 -0.043571
	0.804124 -0.040814
	0.814433 -0.038057
	0.824742 -0.035417
	0.835052 -0.032970
	0.845361 -0.030654
	0.855670 -0.028401
	0.865979 -0.026281
	0.876289 -0.024323
	0.886598 -0.022516
	0.896907 -0.020904
	0.907216 -0.019478
	0.917526 -0.018287
	0.927835 -0.017291
	0.938144 -0.016465
	0.948454 -0.015848
	0.958763 -0.015388
	0.969072 -0.015091
	0.979381 -0.014952
	0.989691 -0.014921
	1.000000 -0.014990
/baseTrajectory
/component
component
rotationAxis 0.0000000000000000 1.0000000000000000 0.0000000000000000
baseTrajectory
	0.000000 0.070753
	0.010309 0.072911
	0.020619 0.074905
	0.030928 0.076758
	0.041237 0.078455
	0.051546 0.079970
	0.061856 0.081322
	0.072165 0.082518
	0.082474 0.083604
	0.092784 0.084595
	0.103093 0.085483
	0.113402 0.086298
	0.123711 0.087039
	0.134021 0.087706
	0.144330 0.088341
	0.154639 0.088931
	0.164948 0.089472
	0.175258 0.089994
	0.185567 0.090485
	0.195876 0.090964
	0.206186 0.091417
	0.216495 0.091845
	0.226804 0.092250
	0.237113 0.092610
	0.247423 0.092911
	0.257732 0.093166
	0.268041 0.093353
	0.278351 0.093463
	0.288660 0.093481
	0.298969 0.093403
	0.309278 0.093225
	0.319588 0.092939
	0.329897 0.092538
	0.340206 0.092053
	0.350515 0.091455
	0.360825 0.090742
	0.371134 0.089920
	0.381443 0.088989
	0.391753 0.087954
	0.402062 0.086807
	0.412371 0.085558
	0.422680 0.084214
	0.432990 0.082752
	0.443299 0.081185
	0.453608 0.079515
	0.463918 0.077731
	0.474227 0.075834
	0.484536 0.073813
	0.494845 0.071684
	0.505155 0.069429
	0.515464 0.067021
	0.525773 0.064471
	0.536082 0.061777
	0.546392 0.058931
	0.556701 0.055942
	0.567010 0.052815
	0.577320 0.049548
	0.587629 0.046130
	0.597938 0.042564
	0.608247 0.038896
	0.618557 0.035095
	0.628866 0.031178
	0.639175 0.027152
	0.649485 0.023043
	0.659794 0.018826
	0.670103 0.014526
	0.680412 0.010150
	0.690722 0.005715
	0.701031 0.001216
	0.711340 -0.003306
	0.721649 -0.007849
	0.731959 -0.012415
	0.742268 -0.017028
	0.752577 -0.021624
	0.762887 -0.026218
	0.773196 -0.030797
	0.783505 -0.035336
	0.793814 -0.039839
	0.804124 -0.044299
	0.814433 -0.048707
	0.824742 -0.053034
	0.835052 -0.057253
	0.845361 -0.061360
	0.855670 -0.065334
	0.865979 -0.069146
	0.876289 -0.072816
	0.886598 -0.076312
	0.896907 -0.079606
	0.907216 -0.082689
	0.917526 -0.085547
	0.927835 -0.088233
	0.938144 -0.090773
	0.948454 -0.093131
	0.958763 -0.095347
	0.969072 -0.097373
	0.979381 -0.099240
	0.989691 -0.100988
	1.000000 -0.102613
/baseTrajectory
/component
component
rotationAxis 0.0000000000000000 0.0000000000000000 1.0000000000000000
baseTrajectory
	0.000000 0.127429
	0.010309 0.124217
	0.020619 0.120780
	0.030928 0.117112
	0.041237 0.113268
	0.051546 0.109250
	0.061856 0.105131
	0.072165 0.100918
	0.082474 0.096586
	0.092784 0.092170
	0.103093 0.087672
	0.113402 0.083064
	0.123711 0.078331
	0.134021 0.073473
	0.144330 0.068497
	0.154639 0.063363
	0.164948 0.058065
	0.175258 0.052640
	0.185567 0.047069
	0.195876 0.041360
	0.206186 0.035504
	0.216495 0.029540
	0.226804 0.023513
	0.237113 0.017449
	0.247423 0.011460
	0.257732 0.005522
	0.268041 -0.000300
	0.278351 -0.005960
	0.288660 -0.011399
	0.298969 -0.016530
	0.309278 -0.021337
	0.319588 -0.025869
	0.329897 -0.030056
	0.340206 -0.034023
	0.350515 -0.037581
	0.360825 -0.040773
	0.371134 -0.043596
	0.381443 -0.046055
	0.391753 -0.048215
	0.402062 -0.050049
	0.412371 -0.051475
	0.422680 -0.052549
	0.432990 -0.053206
	0.443299 -0.053576
	0.453608 -0.053667
	0.463918 -0.053493
	0.474227 -0.053074
	0.484536 -0.052390
	0.494845 -0.051495
	0.505155 -0.050461
	0.515464 -0.049306
	0.525773 -0.048074
	0.536082 -0.046785
	0.546392 -0.045484
	0.556701 -0.044181
	0.567010 -0.042930
	0.577320 -0.041790
	0.587629 -0.040795
	0.597938 -0.039946
	0.608247 -0.039280
	0.618557 -0.038805
	0.628866 -0.038524
	0.639175 -0.038428
	0.649485 -0.038593
	0.659794 -0.038988
	0.670103 -0.039603
	0.680412 -0.040423
	0.690722 -0.041469
	0.701031 -0.042718
	0.711340 -0.044161
	0.721649 -0.045819
	0.731959 -0.047668
	0.742268 -0.049651
	0.752577 -0.051779
	0.762887 -0.054046
	0.773196 -0.056425
	0.783505 -0.058905
	0.793814 -0.061455
	0.804124 -0.064066
	0.814433 -0.066676
	0.824742 -0.069263
	0.835052 -0.071790
	0.845361 -0.074216
	0.855670 -0.076483
	0.865979 -0.078575
	0.876289 -0.080414
	0.886598 -0.081990
	0.896907 -0.083292
	0.907216 -0.084306
	0.917526 -0.085064
	0.927835 -0.085474
	0.938144 -0.085525
	0.948454 -0.085206
	0.958763 -0.084493
	0.969072 -0.083429
	0.979381 -0.081991
	0.989691 -0.080117
	1.000000 -0.077831
/baseTrajectory
/component
/trajectory

trajectory SWING_hip
component
rotationAxis -1.0000000000000000 0.0000000000000000 0.0000000000000000
baseTrajectory
	0.000000 -0.292948
	0.010309 -0.295229
	0.020619 -0.296691
	0.030928 -0.297303
	0.041237 -0.297109
	0.051546 -0.295931
	0.061856 -0.293865
	0.072165 -0.290792
	0.082474 -0.286761
	0.092784 -0.281774
	0.103093 -0.275710
	0.113402 -0.268611
	0.123711 -0.260434
	0.134021 -0.251108
	0.144330 -0.240748
	0.154639 -0.229234
	0.164948 -0.216571
	0.175258 -0.202743
	0.185567 -0.187748
	0.195876 -0.171740
	0.206186 -0.154668
	0.216495 -0.136586
	0.226804 -0.117612
	0.237113 -0.097782
	0.247423 -0.077300
	0.257732 -0.056218
	0.268041 -0.034727
	0.278351 -0.012927
	0.288660 0.009082
	0.298969 0.031134
	0.309278 0.053103
	0.319588 0.075032
	0.329897 0.096800
	0.340206 0.118495
	0.350515 0.139867
	0.360825 0.160949
	0.371134 0.181690
	0.381443 0.202069
	0.391753 0.222106
	0.402062 0.241765
	0.412371 0.260873
	0.422680 0.279451
	0.432990 0.214141
	0.443299 0.415181
	0.453608 0.286984
	0.463918 0.431799
	0.474227 0.696070
	0.484536 0.053261
	0.494845 0.291232
	0.505155 0.975646
	0.515464 0.282086
	0.525773 0.569820
	0.536082 0.442325
	0.546392 0.452908
	0.556701 0.462604
	0.567010 0.471475
	0.577320 0.479586
	0.587629 0.486923
	0.597938 0.493374
	0.608247 0.499075
	0.618557 0.503957
	0.628866 0.507973
	0.639175 0.511120
	0.649485 0.513762
	0.659794 0.515768
	0.670103 0.517120
	0.680412 0.517817
	0.690722 0.518022
	0.701031 0.517661
	0.711340 0.516802
	0.721649 0.515633
	0.731959 0.514096
	0.742268 0.511966
	0.752577 0.509457
	0.762887 0.506746
	0.773196 0.503847
	0.783505 0.500832
	0.793814 0.497754
	0.804124 0.494762
	0.814433 0.491800
	0.824742 0.489051
	0.835052 0.486658
	0.845361 0.484589
	0.855670 0.482791
	0.865979 0.481375
	0.876289 0.480323
	0.886598 0.479670
	0.896907 0.479392
	0.907216 0.479507
	0.917526 0.480004
	0.927835 0.480796
	0.938144 0.481847
	0.948454 0.483130
	0.958763 0.484580
	0.969072 0.486182
	0.979381 0.487907
	0.989691 0.489696
	1.000000 0.491532
/baseTrajectory
/component
component
rotationAxis 0.0000000000000000 -1.0000000000000000 0.0000000000000000
baseTrajectory
	0.000000 0.013989
	0.010309 0.016912
	0.020619 0.019875
	0.030928 0.022884
	0.041237 0.025995
	0.051546 0.029218
	0.061856 0.032616
	0.072165 0.036109
	0.082474 0.039797
	0.092784 0.043662
	0.103093 0.047710
	0.113402 0.051784
	0.123711 0.055882
	0.134021 0.059934
	0.144330 0.063858
	0.154639 0.067593
	0.164948 0.071154
	0.175258 0.074475
	0.185567 0.077542
	0.195876 0.080301
	0.206186 0.082778
	0.216495 0.084966
	0.226804 0.086882
	0.237113 0.088576
	0.247423 0.090038
	0.257732 0.091290
	0.268041 0.092363
	0.278351 0.093244
	0.288660 0.093961
	0.298969 0.094492
	0.309278 0.094839
	0.319588 0.094962
	0.329897 0.094839
	0.340206 0.094497
	0.350515 0.093894
	0.360825 0.093002
	0.371134 0.091818
	0.381443 0.090327
	0.391753 0.088552
	0.402062 0.086472
	0.412371 0.084121
	0.422680 0.081521
	0.432990 0.083846
	0.443299 0.223172
	0.453608 0.038310
	0.463918 0.072323
	0.474227 0.507927
	0.484536 0.187426
	0.494845 -0.083488
	0.505155 -0.290693
	0.515464 -0.136092
	0.525773 -0.211054
	0.536082 0.040919
	0.546392 0.036801
	0.556701 0.032697
	0.567010 0.028633
	0.577320 0.024632
	0.587629 0.020706
	0.597938 0.016848
	0.608247 0.013124
	0.618557 0.009478
	0.628866 0.005907
	0.639175 0.002400
	0.649485 -0.000986
	0.659794 -0.004292
	0.670103 -0.007541
	0.680412 -0.010743
	0.690722 -0.013948
	0.701031 -0.017200
	0.711340 -0.020547
	0.721649 -0.023989
	0.731959 -0.027693
	0.742268 -0.031794
	0.752577 -0.036285
	0.762887 -0.041268
	0.773196 -0.046856
	0.783505 -0.053163
	0.793814 -0.060243
	0.804124 -0.068193
	0.814433 -0.077068
	0.824742 -0.086811
	0.835052 -0.097376
	0.845361 -0.108744
	0.855670 -0.120834
	0.865979 -0.133445
	0.876289 -0.146315
	0.886598 -0.159326
	0.896907 -0.171996
	0.907216 -0.184212
	0.917526 -0.195606
	0.927835 -0.206087
	0.938144 -0.215577
	0.948454 -0.223696
	0.958763 -0.230503
	0.969072 -0.235745
	0.979381 -0.239480
	0.989691 -0.241841
	1.000000 -0.242849
/baseTrajectory
/component
component
rotationAxis 0.0000000000000000 0.0000000000000000 -1.0000000000000000
baseTrajectory
	0.000000 0.149858
	0.010309 0.144422
	0.020619 0.138885
	0.030928 0.133239
	0.041237 0.127560
	0.051546 0.121887
	0.061856 0.116294
	0.072165 0.110793
	0.082474 0.105353
	0.092784 0.100011
	0.103093 0.094794
	0.113402 0.089637
	0.123711 0.084530
	0.134021 0.079470
	0.144330 0.074413
	0.154639 0.069324
	0.164948 0.064198
	0.175258 0.059035
	0.185567 0.053814
	0.195876 0.048492
	0.206186 0.043066
	0.216495 0.037562
	0.226804 0.032018
	0.237113 0.026473
	0.247423 0.021026
	0.257732 0.015635
	0.268041 0.010381
	0.278351 0.005299
	0.288660 0.000466
	0.298969 -0.004045
	0.309278 -0.008219
	0.319588 -0.012129
	0.329897 -0.015711
	0.340206 -0.019103
	0.350515 -0.022110
	0.360825 -0.024793
	0.371134 -0.027162
	0.381443 -0.029234
	0.391753 -0.031076
	0.402062 -0.032678
	0.412371 -0.033937
	0.422680 -0.034915
	0.432990 -0.123754
	0.443299 0.000068
	0.453608 -0.161451
	0.463918 -0.194579
	0.474227 -0.019523
	0.484536 0.263128
	0.494845 -0.186129
	0.505155 0.382825
	0.515464 -0.045558
	0.525773 -0.210052
	0.536082 -0.032721
	0.546392 -0.032093
	0.556701 -0.031523
	0.567010 -0.031067
	0.577320 -0.030785
	0.587629 -0.030712
	0.597938 -0.030857
	0.608247 -0.031224
	0.618557 -0.031851
	0.628866 -0.032734
	0.639175 -0.033873
	0.649485 -0.035305
	0.659794 -0.037014
	0.670103 -0.038980
	0.680412 -0.041185
	0.690722 -0.043648
	0.701031 -0.046359
	0.711340 -0.049289
	0.721649 -0.052449
	0.731959 -0.055837
	0.742268 -0.059423
	0.752577 -0.063181
	0.762887 -0.067103
	0.773196 -0.071165
	0.783505 -0.075340
	0.793814 -0.079587
	0.804124 -0.083881
	0.814433 -0.088152
	0.824742 -0.092330
	0.835052 -0.096344
	0.845361 -0.100150
	0.855670 -0.103669
	0.865979 -0.106855
	0.876289 -0.109609
	0.886598 -0.111925
	0.896907 -0.113752
	0.907216 -0.115100
	0.917526 -0.115995
	0.927835 -0.116385
	0.938144 -0.116304
	0.948454 -0.115709
	0.958763 -0.114632
	0.969072 -0.113105
	0.979381 -0.111131
	0.989691 -0.108687
	1.000000 -0.105800
/baseTrajectory
/component
/trajectory

trajectory STANCE_hip
component
rotationAxis -1.0000000000000000 0.0000000000000000 0.0000000000000000
baseTrajectory
	0.000000 0.547449
	0.010309 0.548638
	0.020619 0.549912
	0.030928 0.551220
	0.041237 0.552577
	0.051546 0.554046
	0.061856 0.555555
	0.072165 0.557101
	0.082474 0.558644
	0.092784 0.560139
	0.103093 0.561639
	0.113402 0.562974
	0.123711 0.564152
	0.134021 0.565141
	0.144330 0.565815
	0.154639 0.566220
	0.164948 0.566371
	0.175258 0.566210
	0.185567 0.565737
	0.195876 0.564827
	0.206186 0.563541
	0.216495 0.561866
	0.226804 0.559751
	0.237113 0.557217
	0.247423 0.554158
	0.257732 0.550576
	0.268041 0.546394
	0.278351 0.541603
	0.288660 0.536201
	0.298969 0.530125
	0.309278 0.523343
	0.319588 0.515966
	0.329897 0.507980
	0.340206 0.499517
	0.350515 0.490462
	0.360825 0.480907
	0.371134 0.470881
	0.381443 0.460435
	0.391753 0.449649
	0.402062 0.438562
	0.412371 0.427088
	0.422680 0.415287
	0.432990 0.481844
	0.443299 0.350709
	0.453608 0.413158
	0.463918 0.271234
	0.474227 0.418109
	0.484536 0.929821
	0.494845 0.530725
	0.505155 0.239478
	0.515464 0.537217
	0.525773 0.565666
	0.536082 0.272509
	0.546392 0.258901
	0.556701 0.245119
	0.567010 0.231253
	0.577320 0.217319
	0.587629 0.203340
	0.597938 0.189206
	0.608247 0.175042
	0.618557 0.160786
	0.628866 0.146397
	0.639175 0.131835
	0.649485 0.117460
	0.659794 0.103105
	0.670103 0.088792
	0.680412 0.074479
	0.690722 0.060313
	0.701031 0.046205
	0.711340 0.032193
	0.721649 0.018441
	0.731959 0.004859
	0.742268 -0.008836
	0.752577 -0.022437
	0.762887 -0.035851
	0.773196 -0.049114
	0.783505 -0.062240
	0.793814 -0.075218
	0.804124 -0.087976
	0.814433 -0.100626
	0.824742 -0.113017
	0.835052 -0.125035
	0.845361 -0.136781
	0.855670 -0.148304
	0.865979 -0.159515
	0.876289 -0.170360
	0.886598 -0.180858
	0.896907 -0.190952
	0.907216 -0.200644
	0.917526 -0.209892
	0.927835 -0.218725
	0.938144 -0.227152
	0.948454 -0.235108
	0.958763 -0.242630
	0.969072 -0.249708
	0.979381 -0.256312
	0.989691 -0.262458
	1.000000 -0.268117
/baseTrajectory
/component
component
rotationAxis 0.0000000000000000 1.0000000000000000 0.0000000000000000
baseTrajectory
	0.000000 -0.273102
	0.010309 -0.266168
	0.020619 -0.258056
	0.030928 -0.249044
	0.041237 -0.239418
	0.051546 -0.229154
	0.061856 -0.218582
	0.072165 -0.207838
	0.082474 -0.197331
	0.092784 -0.187272
	0.103093 -0.177667
	0.113402 -0.168707
	0.123711 -0.160419
	0.134021 -0.152783
	0.144330 -0.146092
	0.154639 -0.140264
	0.164948 -0.135322
	0.175258 -0.131263
	0.185567 -0.128038
	0.195876 -0.125782
	0.206186 -0.124349
	0.216495 -0.123737
	0.226804 -0.123906
	0.237113 -0.124710
	0.247423 -0.126074
	0.257732 -0.127999
	0.268041 -0.130362
	0.278351 -0.133091
	0.288660 -0.136060
	0.298969 -0.139184
	0.309278 -0.142400
	0.319588 -0.145691
	0.329897 -0.148970
	0.340206 -0.152275
	0.350515 -0.155430
	0.360825 -0.158425
	0.371134 -0.161241
	0.381443 -0.163850
	0.391753 -0.166283
	0.402062 -0.168530
	0.412371 -0.170499
	0.422680 -0.172213
	0.432990 -0.244320
	0.443299 -0.114361
	0.453608 -0.065175
	0.463918 -0.044211
	0.474227 0.028930
	0.484536 0.079991
	0.494845 0.127310
	0.505155 0.343660
	0.515464 -0.414140
	0.525773 0.616514
	0.536082 -0.181688
	0.546392 -0.182409
	0.556701 -0.183228
	0.567010 -0.184191
	0.577320 -0.185150
	0.587629 -0.186133
	0.597938 -0.187149
	0.608247 -0.188224
	0.618557 -0.189287
	0.628866 -0.190350
	0.639175 -0.191345
	0.649485 -0.192237
	0.659794 -0.192847
	0.670103 -0.193283
	0.680412 -0.193454
	0.690722 -0.193332
	0.701031 -0.192833
	0.711340 -0.192013
	0.721649 -0.190806
	0.731959 -0.189220
	0.742268 -0.187136
	0.752577 -0.184741
	0.762887 -0.181949
	0.773196 -0.178792
	0.783505 -0.175292
	0.793814 -0.171486
	0.804124 -0.167399
	0.814433 -0.163080
	0.824742 -0.158634
	0.835052 -0.154205
	0.845361 -0.149783
	0.855670 -0.145501
	0.865979 -0.141429
	0.876289 -0.137637
	0.886598 -0.134186
	0.896907 -0.131112
	0.907216 -0.128410
	0.917526 -0.126057
	0.927835 -0.124015
	0.938144 -0.122233
	0.948454 -0.120783
	0.958763 -0.119609
	0.969072 -0.118652
	0.979381 -0.117853
	0.989691 -0.117141
	1.000000 -0.116553
/baseTrajectory
/component
component
rotationAxis 0.0000000000000000 0.0000000000000000 1.0000000000000000
baseTrajectory
	0.000000 -0.148562
	0.010309 -0.145160
	0.020619 -0.141396
	0.030928 -0.137266
	0.041237 -0.132850
	0.051546 -0.128079
	0.061856 -0.123075
	0.072165 -0.117829
	0.082474 -0.112389
	0.092784 -0.106822
	0.103093 -0.101112
	0.113402 -0.095262
	0.123711 -0.089258
	0.134021 -0.083089
	0.144330 -0.076847
	0.154639 -0.070476
	0.164948 -0.063985
	0.175258 -0.057432
	0.185567 -0.050793
	0.195876 -0.044123
	0.206186 -0.037391
	0.216495 -0.030648
	0.226804 -0.023942
	0.237113 -0.017271
	0.247423 -0.010730
	0.257732 -0.004307
	0.268041 0.001968
	0.278351 0.008063
	0.288660 0.013950
	0.298969 0.019562
	0.309278 0.024899
	0.319588 0.030009
	0.329897 0.034843
	0.340206 0.039507
	0.350515 0.043859
	0.360825 0.047938
	0.371134 0.051740
	0.381443 0.055271
	0.391753 0.058580
	0.402062 0.061639
	0.412371 0.064382
	0.422680 0.066852
	0.432990 0.044399
	0.443299 0.185767
	0.453608 -0.079594
	0.463918 0.146374
	0.474227 0.269061
	0.484536 0.315597
	0.494845 -0.288799
	0.505155 0.091953
	0.515464 -0.107821
	0.525773 0.050114
	0.536082 0.078293
	0.546392 0.078448
	0.556701 0.078549
	0.567010 0.078640
	0.577320 0.078805
	0.587629 0.079073
	0.597938 0.079436
	0.608247 0.079917
	0.618557 0.080530
	0.628866 0.081263
	0.639175 0.082116
	0.649485 0.083160
	0.659794 0.084380
	0.670103 0.085734
	0.680412 0.087214
	0.690722 0.088831
	0.701031 0.090572
	0.711340 0.092408
	0.721649 0.094365
	0.731959 0.096403
	0.742268 0.098471
	0.752577 0.100558
	0.762887 0.102661
	0.773196 0.104746
	0.783505 0.106798
	0.793814 0.108779
	0.804124 0.110676
	0.814433 0.112418
	0.824742 0.113977
	0.835052 0.115300
	0.845361 0.116357
	0.855670 0.117075
	0.865979 0.117451
	0.876289 0.117395
	0.886598 0.116910
	0.896907 0.116011
	0.907216 0.114696
	0.917526 0.113032
	0.927835 0.110918
	0.938144 0.108351
	0.948454 0.105339
	0.958763 0.101855
	0.969072 0.097990
	0.979381 0.093719
	0.989691 0.088977
	1.000000 0.083793
/baseTrajectory
/component
/trajectory

trajectory SWING_knee
component
rotationAxis -1.0000000000000000 0.0000000000000000 0.0000000000000000
baseTrajectory
	0.000000 -0.152408
	0.010309 -0.163850
	0.020619 -0.176322
	0.030928 -0.189927
	0.041237 -0.204616
	0.051546 -0.220468
	0.061856 -0.237463
	0.072165 -0.255687
	0.082474 -0.275072
	0.092784 -0.295620
	0.103093 -0.317297
	0.113402 -0.340141
	0.123711 -0.364048
	0.134021 -0.389016
	0.144330 -0.414980
	0.154639 -0.441868
	0.164948 -0.469525
	0.175258 -0.497942
	0.185567 -0.526972
	0.195876 -0.556507
	0.206186 -0.586406
	0.216495 -0.616556
	0.226804 -0.646790
	0.237113 -0.676953
	0.247423 -0.706860
	0.257732 -0.736420
	0.268041 -0.765414
	0.278351 -0.793721
	0.288660 -0.821179
	0.298969 -0.847640
	0.309278 -0.872972
	0.319588 -0.897108
	0.329897 -0.919920
	0.340206 -0.941396
	0.350515 -0.961347
	0.360825 -0.979732
	0.371134 -0.996487
	0.381443 -1.011573
	0.391753 -1.024967
	0.402062 -1.036638
	0.412371 -1.046507
	0.422680 -1.054584
	0.432990 -1.088296
	0.443299 -1.110255
	0.453608 -1.044356
	0.463918 -1.089718
	0.474227 -0.836823
	0.484536 -1.181046
	0.494845 -0.973326
	0.505155 -0.689982
	0.515464 -1.243389
	0.525773 -0.983437
	0.536082 -1.029789
	0.546392 -1.018024
	0.556701 -1.004816
	0.567010 -0.990220
	0.577320 -0.974288
	0.587629 -0.957047
	0.597938 -0.938518
	0.608247 -0.918756
	0.618557 -0.897786
	0.628866 -0.875635
	0.639175 -0.852344
	0.649485 -0.828009
	0.659794 -0.802630
	0.670103 -0.776253
	0.680412 -0.748925
	0.690722 -0.720741
	0.701031 -0.691742
